Time;Total_SIF
03.06.2019 05:00;-9.228119919
03.06.2019 05:01;-9.74914047
03.06.2019 05:02;-11.3990401
03.06.2019 05:03;-11.47162099
03.06.2019 05:04;-14.60749477
03.06.2019 05:05;-16.03020161
03.06.2019 05:05;-13.82221341
03.06.2019 05:06;-14.42788308
03.06.2019 05:07;-17.74607602
03.06.2019 05:08;-17.82278247
03.06.2019 05:09;-15.57277953
03.06.2019 05:10;-20.13256611
03.06.2019 05:10;-17.37972846
03.06.2019 05:11;-22.64665653
03.06.2019 05:12;-23.34569162
03.06.2019 05:13;-24.82467709
03.06.2019 05:14;-18.42244198
03.06.2019 05:15;-25.66243897
03.06.2019 05:15;-22.03874837
03.06.2019 05:16;-20.84479204
03.06.2019 05:17;-22.35472041
03.06.2019 05:18;-24.21378903
03.06.2019 05:19;-27.31995173
03.06.2019 05:19;-28.63925928
03.06.2019 05:20;-28.07511492
03.06.2019 05:21;-28.91766427
03.06.2019 05:22;-23.81939818
03.06.2019 05:23;-24.94755634
03.06.2019 05:23;-31.89882318
03.06.2019 05:24;-33.33688925
03.06.2019 05:25;-31.71748091
03.06.2019 05:26;-32.62378383
03.06.2019 05:27;-33.09810115
03.06.2019 05:27;-25.55457678
03.06.2019 05:28;-26.008228
03.06.2019 05:29;-25.63832457
03.06.2019 05:30;-29.30144896
03.06.2019 05:31;-25.69064593
03.06.2019 05:31;-32.4747943
03.06.2019 05:32;-29.41837373
03.06.2019 05:33;-25.8548701
03.06.2019 05:34;-32.23381271
03.06.2019 05:35;-29.7549131
03.06.2019 05:36;-23.42949042
03.06.2019 05:36;-28.6288344
03.06.2019 05:37;-30.29320144
03.06.2019 05:38;-27.4519711
03.06.2019 05:39;-23.84337807
03.06.2019 05:40;-20.0148426
03.06.2019 05:40;-25.40740015
03.06.2019 05:41;-20.91992691
03.06.2019 05:42;-22.96527933
03.06.2019 05:43;-20.14520825
03.06.2019 05:44;-14.09492897
03.06.2019 05:44;-19.57370696
03.06.2019 05:45;-16.01535494
03.06.2019 05:46;-12.90391136
03.06.2019 05:47;-14.93443498
03.06.2019 05:48;-14.0629172
03.06.2019 05:48;-13.93457199
03.06.2019 05:49;-8.960587289
03.06.2019 05:50;-11.456281
03.06.2019 05:51;-7.852644618
03.06.2019 05:51;-9.373640069
03.06.2019 05:52;-8.282642968
03.06.2019 05:53;-6.618518116
03.06.2019 05:54;-5.754171567
03.06.2019 05:55;-5.894580528
03.06.2019 05:55;-3.637374134
03.06.2019 05:56;-4.332342159
03.06.2019 05:57;-2.20518319
03.06.2019 05:58;-1.801547628
03.06.2019 05:58;-2.503205014
03.06.2019 05:59;-1.80957325
03.06.2019 06:00;-0.02453719
03.06.2019 06:01;1.204153559
03.06.2019 06:02;0.826121595
03.06.2019 06:02;1.497921614
03.06.2019 06:03;1.833473891
03.06.2019 06:04;2.881124317
03.06.2019 06:05;4.046042281
03.06.2019 06:05;4.385892811
03.06.2019 06:06;4.807134318
03.06.2019 06:07;3.718332581
03.06.2019 06:08;3.824827893
03.06.2019 06:08;6.218204878
03.06.2019 06:09;5.677437423
03.06.2019 06:10;5.686434666
03.06.2019 06:11;5.825489862
03.06.2019 06:12;6.698205294
03.06.2019 06:12;6.940725685
03.06.2019 06:13;7.297596874
03.06.2019 06:14;6.993751784
03.06.2019 06:15;11.23299249
03.06.2019 06:15;8.93024535
03.06.2019 06:16;7.152374636
03.06.2019 06:17;8.355591232
03.06.2019 06:18;9.033603194
03.06.2019 06:19;13.69446449
03.06.2019 06:19;9.295354765
03.06.2019 06:20;10.49789642
03.06.2019 06:21;13.4478387
03.06.2019 06:22;10.51138458
03.06.2019 06:22;11.18297511
03.06.2019 06:23;15.42968297
03.06.2019 06:24;9.904717454
03.06.2019 06:25;13.66255852
03.06.2019 06:25;15.16535053
03.06.2019 06:26;13.36363043
03.06.2019 06:27;16.09331713
03.06.2019 06:28;13.26617538
03.06.2019 06:28;12.87944697
03.06.2019 06:29;16.61349458
03.06.2019 06:30;14.85823203
03.06.2019 06:31;14.2960339
03.06.2019 06:31;18.83555699
03.06.2019 06:32;14.69452612
03.06.2019 06:33;20.33515356
03.06.2019 06:34;15.62247957
03.06.2019 06:34;17.11141492
03.06.2019 06:35;19.78240444
03.06.2019 06:36;15.3528725
03.06.2019 06:37;17.37093763
03.06.2019 06:37;17.10318089
03.06.2019 06:38;18.83249149
03.06.2019 06:39;15.96594318
03.06.2019 06:40;21.44028807
03.06.2019 06:40;23.26978753
03.06.2019 06:41;17.66525537
03.06.2019 06:42;21.23736001
03.06.2019 06:43;23.11922618
03.06.2019 06:43;18.3145253
03.06.2019 06:44;19.90365858
03.06.2019 06:45;19.57419422
03.06.2019 06:46;21.1815611
03.06.2019 06:46;17.64954352
03.06.2019 06:47;23.33661972
03.06.2019 06:48;26.12841465
03.06.2019 06:49;19.35617784
03.06.2019 06:49;24.83739174
03.06.2019 06:50;23.95084545
03.06.2019 06:51;18.32641277
03.06.2019 06:52;26.92981344
03.06.2019 06:52;25.31097033
03.06.2019 06:53;21.06797759
03.06.2019 06:54;20.86041347
03.06.2019 06:55;29.21504491
03.06.2019 06:55;31.69685373
03.06.2019 06:56;26.19767949
03.06.2019 06:57;22.96435929
03.06.2019 06:58;25.1334596
03.06.2019 06:58;25.07227512
03.06.2019 06:59;30.29400822
03.06.2019 07:00;20.30311161
03.06.2019 07:01;29.2707244
03.06.2019 07:01;27.82559906
03.06.2019 07:02;26.72810513
03.06.2019 07:03;20.83568584
03.06.2019 07:04;20.53435251
03.06.2019 07:04;23.25046591
03.06.2019 07:05;25.34270399
03.06.2019 07:06;23.6820882
03.06.2019 07:07;29.86895337
03.06.2019 07:07;22.72258302
03.06.2019 07:08;21.32971243
03.06.2019 07:09;27.66426697
03.06.2019 07:09;30.2706919
03.06.2019 07:10;25.04873467
03.06.2019 07:11;22.73266551
03.06.2019 07:11;25.10787898
03.06.2019 07:12;24.01420976
03.06.2019 07:13;24.84029234
03.06.2019 07:14;24.71607921
03.06.2019 07:14;22.74947092
03.06.2019 07:15;25.84398258
03.06.2019 07:16;25.86658379
03.06.2019 07:16;27.16174593
03.06.2019 07:17;27.20841041
03.06.2019 07:18;36.14747832
03.06.2019 07:19;34.8416201
03.06.2019 07:19;23.51516506
03.06.2019 07:20;23.28993434
03.06.2019 07:21;22.56593757
03.06.2019 07:21;28.85501683
03.06.2019 07:22;31.34738615
03.06.2019 07:23;33.91173252
03.06.2019 07:23;30.86643119
03.06.2019 07:24;26.27513312
03.06.2019 07:25;37.84191204
03.06.2019 07:26;26.59526631
03.06.2019 07:26;32.34269192
03.06.2019 07:27;40.02202616
03.06.2019 07:28;37.99294731
03.06.2019 07:28;36.30804705
03.06.2019 07:29;32.04714471
03.06.2019 07:30;33.66433214
03.06.2019 07:30;36.25572878
03.06.2019 07:31;35.13954025
03.06.2019 07:32;31.32745342
03.06.2019 07:33;35.23482931
03.06.2019 07:33;33.64163808
03.06.2019 07:34;37.58605963
03.06.2019 07:35;38.72009175
03.06.2019 07:35;34.2360363
03.06.2019 07:36;27.81947296
03.06.2019 07:37;38.54306611
03.06.2019 07:37;40.69790324
03.06.2019 07:38;42.08628286
03.06.2019 07:39;40.53964183
03.06.2019 07:40;29.10682806
03.06.2019 07:40;37.70976368
03.06.2019 07:41;37.45297425
03.06.2019 07:41;38.08933055
03.06.2019 07:42;36.95576104
03.06.2019 07:43;38.8899358
03.06.2019 07:43;42.06949335
03.06.2019 07:44;39.72898937
03.06.2019 07:45;35.98965808
03.06.2019 07:45;43.68998918
03.06.2019 07:46;41.96361898
03.06.2019 07:47;44.52312495
03.06.2019 07:48;40.55744044
03.06.2019 07:48;45.16385119
03.06.2019 07:49;43.73661941
03.06.2019 07:50;41.80770689
03.06.2019 07:50;40.90800919
03.06.2019 07:51;41.38470445
03.06.2019 07:51;38.82181139
03.06.2019 07:52;40.59729132
03.06.2019 07:53;41.08219607
03.06.2019 07:53;43.98200611
03.06.2019 07:54;43.26015267
03.06.2019 07:55;47.1999167
03.06.2019 07:55;37.24576184
03.06.2019 07:56;48.29300139
03.06.2019 07:57;42.53591249
03.06.2019 07:57;42.16820436
03.06.2019 07:58;48.07891256
03.06.2019 07:59;39.7225209
03.06.2019 08:00;49.64978879
03.06.2019 08:00;46.21176679
03.06.2019 08:01;45.65889786
03.06.2019 08:01;45.19138154
03.06.2019 08:02;48.34210788
03.06.2019 08:03;45.624158
03.06.2019 08:03;45.06469341
03.06.2019 08:04;42.28901404
03.06.2019 08:05;42.69929568
03.06.2019 08:05;47.02895866
03.06.2019 08:06;46.94254751
03.06.2019 08:07;44.40716477
03.06.2019 08:07;45.3916393
03.06.2019 08:08;44.52076616
03.06.2019 08:09;51.54299018
03.06.2019 08:09;52.14812766
03.06.2019 08:10;48.49718288
03.06.2019 08:10;44.5030027
03.06.2019 08:11;53.33620801
03.06.2019 08:12;46.27966544
03.06.2019 08:12;39.86591815
03.06.2019 08:13;43.65588229
03.06.2019 08:14;45.63477444
03.06.2019 08:14;47.36766414
03.06.2019 08:15;42.07706028
03.06.2019 08:16;52.8845656
03.06.2019 08:16;52.72855955
03.06.2019 08:17;52.94317733
03.06.2019 08:17;36.72649104
03.06.2019 08:18;48.19739654
03.06.2019 08:19;47.77183173
03.06.2019 08:19;50.73580429
03.06.2019 08:20;49.65186227
03.06.2019 08:21;49.11291307
03.06.2019 08:21;47.09508911
03.06.2019 08:22;40.85403327
03.06.2019 08:23;54.08674993
03.06.2019 08:23;44.48732887
03.06.2019 08:24;50.26570413
03.06.2019 08:25;39.04904539
03.06.2019 08:25;42.29810063
03.06.2019 08:26;46.14865166
03.06.2019 08:26;35.9728717
03.06.2019 08:27;46.81336137
03.06.2019 08:28;49.47280802
03.06.2019 08:28;50.09357694
03.06.2019 08:29;53.85275509
03.06.2019 08:30;37.86512712
03.06.2019 08:30;49.62543708
03.06.2019 08:31;42.63581242
03.06.2019 08:32;53.76386781
03.06.2019 08:32;42.14923616
03.06.2019 08:33;54.98182504
03.06.2019 08:33;62.71880527
03.06.2019 08:34;60.03507146
03.06.2019 08:35;52.16306893
03.06.2019 08:35;50.31244292
03.06.2019 08:36;57.7204065
03.06.2019 08:37;45.47657169
03.06.2019 08:37;36.84112633
03.06.2019 08:38;49.28192061
03.06.2019 08:38;46.6649832
03.06.2019 08:39;47.63748468
03.06.2019 08:40;46.14808315
03.06.2019 08:40;57.64572314
03.06.2019 08:41;50.84990801
03.06.2019 08:42;40.80964293
03.06.2019 08:42;58.90734619
03.06.2019 08:43;41.08460188
03.06.2019 08:44;42.0554862
03.06.2019 08:44;47.85341502
03.06.2019 08:45;59.30622124
03.06.2019 08:45;55.51120367
03.06.2019 08:46;60.81505748
03.06.2019 08:47;57.14705074
03.06.2019 08:47;51.74839107
03.06.2019 08:48;44.48431047
03.06.2019 08:49;41.32529616
03.06.2019 08:49;63.15921245
03.06.2019 08:50;42.92265834
03.06.2019 08:51;62.57101396
03.06.2019 08:51;44.10031488
03.06.2019 08:52;42.37738272
03.06.2019 08:53;47.45105462
03.06.2019 08:53;63.04006013
03.06.2019 08:54;42.60220172
03.06.2019 08:54;40.8602546
03.06.2019 08:55;56.55260332
03.06.2019 08:56;60.03082175
03.06.2019 08:56;43.29886539
03.06.2019 08:57;61.31083536
03.06.2019 08:58;56.11274312
03.06.2019 08:58;41.50532557
03.06.2019 08:59;38.21008392
03.06.2019 08:59;59.18688571
03.06.2019 09:00;51.93867774
03.06.2019 09:01;49.51407603
03.06.2019 09:01;46.41822532
03.06.2019 09:02;41.96524315
03.06.2019 09:03;54.16591619
03.06.2019 09:03;41.75575332
03.06.2019 09:04;74.98618493
03.06.2019 09:05;55.77128404
03.06.2019 09:05;52.25333944
03.06.2019 09:06;45.93524126
03.06.2019 09:07;58.27964005
03.06.2019 09:07;56.56890142
03.06.2019 09:08;61.00024549
03.06.2019 09:08;65.06429317
03.06.2019 09:09;68.64210066
03.06.2019 09:10;54.36171172
03.06.2019 09:10;57.01300788
03.06.2019 09:11;54.22744546
03.06.2019 09:12;41.823478
03.06.2019 09:12;50.02024232
03.06.2019 09:13;65.6549946
03.06.2019 09:14;43.99683643
03.06.2019 09:14;55.69867852
03.06.2019 09:15;57.79237411
03.06.2019 09:16;51.55525626
03.06.2019 09:16;50.573045
03.06.2019 09:17;69.01768878
03.06.2019 09:17;55.14299346
03.06.2019 09:18;44.8469441
03.06.2019 09:19;69.31778121
03.06.2019 09:19;50.28864679
03.06.2019 09:20;62.21482241
03.06.2019 09:21;53.08529913
03.06.2019 09:21;52.28094066
03.06.2019 09:22;46.09296952
03.06.2019 09:23;45.06835184
03.06.2019 09:23;51.23517939
03.06.2019 09:24;54.41232764
03.06.2019 09:24;48.0468568
03.06.2019 09:25;56.66011832
03.06.2019 09:26;72.12114052
03.06.2019 09:26;45.61066842
03.06.2019 09:27;69.84043405
03.06.2019 09:28;52.44863071
03.06.2019 09:28;49.61689562
03.06.2019 09:29;41.95031169
03.06.2019 09:30;63.9928908
03.06.2019 09:30;58.38518977
03.06.2019 09:31;62.00232688
03.06.2019 09:31;67.27175151
03.06.2019 09:32;47.48412243
03.06.2019 09:33;76.08519914
03.06.2019 09:33;47.1075274
03.06.2019 09:34;65.87588598
03.06.2019 09:35;49.33224418
03.06.2019 09:35;67.51594239
03.06.2019 09:36;63.44608951
03.06.2019 09:36;67.8145067
03.06.2019 09:37;64.09114092
03.06.2019 09:38;47.9649573
03.06.2019 09:38;65.12021951
03.06.2019 09:39;58.50586382
03.06.2019 09:40;47.09850048
03.06.2019 09:40;48.67882363
03.06.2019 09:41;52.93953499
03.06.2019 09:42;52.73510025
03.06.2019 09:42;49.14475332
03.06.2019 09:43;43.18536439
03.06.2019 09:43;45.25030868
03.06.2019 09:44;55.50392281
03.06.2019 09:45;63.31600918
03.06.2019 09:45;53.8969641
03.06.2019 09:46;51.47253537
03.06.2019 09:47;68.71749474
03.06.2019 09:47;64.11372621
03.06.2019 09:48;65.07594522
03.06.2019 09:49;48.35181825
03.06.2019 09:49;45.11932674
03.06.2019 09:50;60.73949286
03.06.2019 09:50;42.54121461
03.06.2019 09:51;64.67325944
03.06.2019 09:52;54.0513103
03.06.2019 09:52;47.29341385
03.06.2019 09:53;63.28862812
03.06.2019 09:54;47.09532808
03.06.2019 09:54;71.52903326
03.06.2019 09:55;48.74103153
03.06.2019 09:55;55.36270917
03.06.2019 09:56;55.01641804
03.06.2019 09:57;62.40129697
03.06.2019 09:57;73.49788598
03.06.2019 09:58;42.34134362
03.06.2019 09:59;54.900152
03.06.2019 09:59;69.89235443
03.06.2019 10:00;53.49923679
03.06.2019 10:01;78.17321727
03.06.2019 10:01;61.69336839
03.06.2019 10:02;66.39332661
03.06.2019 10:02;53.38201423
03.06.2019 10:03;61.55578672
03.06.2019 10:04;47.08532486
03.06.2019 10:04;66.75522355
03.06.2019 10:05;74.6460723
03.06.2019 10:06;65.48420279
03.06.2019 10:06;67.90220181
03.06.2019 10:07;51.79142436
03.06.2019 10:08;74.47753883
03.06.2019 10:08;69.5302702
03.06.2019 10:09;59.24858508
03.06.2019 10:09;58.12189683
03.06.2019 10:10;46.33183572
03.06.2019 10:11;65.28169083
03.06.2019 10:11;64.77418191
03.06.2019 10:12;43.63567536
03.06.2019 10:13;70.23356441
03.06.2019 10:13;65.30068376
03.06.2019 10:14;39.59707005
03.06.2019 10:14;50.26554208
03.06.2019 10:15;51.33023057
03.06.2019 10:16;46.77458409
03.06.2019 10:16;63.16235139
03.06.2019 10:17;70.00815273
03.06.2019 10:18;53.98778233
03.06.2019 10:18;70.23975821
03.06.2019 10:19;47.3113439
03.06.2019 10:20;77.4019568
03.06.2019 10:20;47.66838568
03.06.2019 10:21;47.43454374
03.06.2019 10:21;75.82179405
03.06.2019 10:22;49.09213057
03.06.2019 10:23;74.06603835
03.06.2019 10:23;60.13452373
03.06.2019 10:24;58.57471682
03.06.2019 10:25;56.76811872
03.06.2019 10:25;67.91818599
03.06.2019 10:26;48.2273046
03.06.2019 10:27;49.65250205
03.06.2019 10:27;78.23009212
03.06.2019 10:28;58.99283987
03.06.2019 10:28;78.86293305
03.06.2019 10:29;69.09351925
03.06.2019 10:30;56.26925551
03.06.2019 10:30;54.05390067
03.06.2019 10:31;60.7463497
03.06.2019 10:32;62.97327767
03.06.2019 10:32;80.95389533
03.06.2019 10:33;69.76805328
03.06.2019 10:33;48.89929982
03.06.2019 10:34;43.06227348
03.06.2019 10:35;52.31747883
03.06.2019 10:35;38.07262501
03.06.2019 10:36;52.37388817
03.06.2019 10:37;57.37627038
03.06.2019 10:37;57.67697363
03.06.2019 10:38;40.85656137
03.06.2019 10:39;44.17007778
03.06.2019 10:39;63.12992913
03.06.2019 10:40;52.71888621
03.06.2019 10:40;38.29593358
03.06.2019 10:41;56.78112244
03.06.2019 10:42;44.67037753
03.06.2019 10:42;36.41427046
03.06.2019 10:43;43.54699515
03.06.2019 10:44;58.19316534
03.06.2019 10:44;38.18382091
03.06.2019 10:45;47.81523348
03.06.2019 10:46;66.62675476
03.06.2019 10:46;50.1715622
03.06.2019 10:47;40.90154194
03.06.2019 10:47;53.63843251
03.06.2019 10:48;43.31405101
03.06.2019 10:49;76.15360832
03.06.2019 10:49;80.74744456
03.06.2019 10:50;70.48544867
03.06.2019 10:51;67.57850082
03.06.2019 10:51;56.52440617
03.06.2019 10:52;79.51495943
03.06.2019 10:52;76.43883161
03.06.2019 10:53;56.06988572
03.06.2019 10:54;67.23539023
03.06.2019 10:54;85.75406299
03.06.2019 10:55;68.42670251
03.06.2019 10:56;71.64511964
03.06.2019 10:56;72.57569315
03.06.2019 10:57;47.46210748
03.06.2019 10:58;83.48780908
03.06.2019 10:58;66.92477182
03.06.2019 10:59;52.7599759
03.06.2019 11:00;81.93932371
03.06.2019 11:00;73.81773183
03.06.2019 11:01;49.90450102
03.06.2019 11:01;65.96896244
03.06.2019 11:02;63.86651957
03.06.2019 11:03;56.07538391
03.06.2019 11:03;64.68178777
03.06.2019 11:04;46.74943397
03.06.2019 11:05;69.30334038
03.06.2019 11:05;54.34863395
03.06.2019 11:06;37.55473208
03.06.2019 11:06;43.45420572
03.06.2019 11:07;62.75533786
03.06.2019 11:08;51.44808721
03.06.2019 11:08;60.43576057
03.06.2019 11:09;90.92223271
03.06.2019 11:10;65.41067441
03.06.2019 11:10;44.4279779
03.06.2019 11:11;46.25288787
03.06.2019 11:12;44.03324903
03.06.2019 11:12;65.49760531
03.06.2019 11:13;40.38864794
03.06.2019 11:13;42.23594377
03.06.2019 11:14;45.20348459
03.06.2019 11:15;40.55156522
03.06.2019 11:15;38.33670792
03.06.2019 11:16;51.19371287
03.06.2019 11:17;55.98131152
03.06.2019 11:17;25.52088357
03.06.2019 11:18;46.096111
03.06.2019 11:19;57.5081625
03.06.2019 11:19;61.18775074
03.06.2019 11:20;59.600608
03.06.2019 11:20;71.68881456
03.06.2019 11:21;67.67228036
03.06.2019 11:22;38.85752499
03.06.2019 11:22;49.64250118
03.06.2019 11:23;59.7172964
03.06.2019 11:24;55.10945059
03.06.2019 11:24;68.24681804
03.06.2019 11:25;64.38036346
03.06.2019 11:25;52.86882153
03.06.2019 11:26;59.88436263
03.06.2019 11:27;88.25827005
03.06.2019 11:27;55.98350286
03.06.2019 11:28;55.28415679
03.06.2019 11:29;89.6631831
03.06.2019 11:29;66.74572681
03.06.2019 11:30;55.77420216
03.06.2019 11:31;47.16939113
03.06.2019 11:31;57.44691946
03.06.2019 11:32;64.59870099
03.06.2019 11:32;73.61829921
03.06.2019 11:33;65.7491077
03.06.2019 11:34;70.95758408
03.06.2019 11:34;67.25755268
03.06.2019 11:35;76.92268992
03.06.2019 11:36;73.672256
03.06.2019 11:36;64.82531259
03.06.2019 11:37;71.6027497
03.06.2019 11:38;75.74851048
03.06.2019 11:38;64.86129865
03.06.2019 11:39;59.77454902
03.06.2019 11:39;71.34860967
03.06.2019 11:40;65.16955438
03.06.2019 11:41;56.97724734
03.06.2019 11:41;73.80648234
03.06.2019 11:42;58.16319719
03.06.2019 11:43;52.41343769
03.06.2019 11:43;74.05860965
03.06.2019 11:44;75.08467747
03.06.2019 11:45;58.69725207
03.06.2019 11:45;60.49106171
03.06.2019 11:46;43.09276933
03.06.2019 11:46;59.82752573
03.06.2019 11:47;75.72582059
03.06.2019 11:48;63.32473288
03.06.2019 11:48;59.53092885
03.06.2019 11:49;54.38272499
03.06.2019 11:50;88.3006798
03.06.2019 11:50;52.15523353
03.06.2019 11:51;65.91996856
03.06.2019 11:52;54.87936796
03.06.2019 11:52;68.36130918
03.06.2019 11:53;45.1072847
03.06.2019 11:54;58.0702103
03.06.2019 11:54;56.72878106
03.06.2019 11:55;77.118348
03.06.2019 11:55;53.52189679
03.06.2019 11:56;50.31266749
03.06.2019 11:57;42.71370151
03.06.2019 11:57;72.63574649
03.06.2019 11:58;43.94823142
03.06.2019 11:59;57.39762331
03.06.2019 11:59;68.74355977
03.06.2019 12:00;48.6118433
03.06.2019 12:01;39.11932395
03.06.2019 12:01;69.64184323
03.06.2019 12:02;83.32616301
03.06.2019 12:02;72.73035549
03.06.2019 12:03;46.96025351
03.06.2019 12:04;48.63010885
03.06.2019 12:04;48.9463445
03.06.2019 12:05;44.41472956
03.06.2019 12:06;41.7715615
03.06.2019 12:06;59.13066216
03.06.2019 12:07;57.12301549
03.06.2019 12:08;68.41911824
03.06.2019 12:08;72.89401674
03.06.2019 12:09;50.75671426
03.06.2019 12:09;74.72813657
03.06.2019 12:10;41.00849438
03.06.2019 12:11;41.17758326
03.06.2019 12:11;57.79200832
03.06.2019 12:12;75.05560661
03.06.2019 12:13;45.83023248
03.06.2019 12:13;49.7617906
03.06.2019 12:14;60.84978444
03.06.2019 12:15;63.82720787
03.06.2019 12:15;55.25255395
03.06.2019 12:16;89.37856643
03.06.2019 12:16;40.06621832
03.06.2019 12:17;52.64290444
03.06.2019 12:18;47.77845089
03.06.2019 12:18;67.67512547
03.06.2019 12:19;51.93548903
03.06.2019 12:20;45.70897525
03.06.2019 12:20;45.06722868
03.06.2019 12:21;39.19750805
03.06.2019 12:22;62.09397734
03.06.2019 12:22;51.9599396
03.06.2019 12:23;55.86142563
03.06.2019 12:23;57.90671183
03.06.2019 12:24;61.25963867
03.06.2019 12:25;33.84672474
03.06.2019 12:25;34.27424371
03.06.2019 12:26;55.75007329
03.06.2019 12:27;47.88855166
03.06.2019 12:27;45.39276215
03.06.2019 12:28;44.37516373
03.06.2019 12:28;58.8864846
03.06.2019 12:29;52.60253687
03.06.2019 12:30;35.85875814
03.06.2019 12:30;47.13703071
03.06.2019 12:31;37.73740409
03.06.2019 12:32;53.66816931
03.06.2019 12:32;52.53640955
03.06.2019 12:33;59.93940418
03.06.2019 12:34;36.45802528
03.06.2019 12:34;33.75494146
03.06.2019 12:35;29.56545268
03.06.2019 12:35;50.15548938
03.06.2019 12:36;47.75699314
03.06.2019 12:37;45.44608143
03.06.2019 12:37;31.63220813
03.06.2019 12:38;37.72033986
03.06.2019 12:39;57.03749528
03.06.2019 12:39;63.34588528
03.06.2019 12:40;61.73667246
03.06.2019 12:41;27.25309409
03.06.2019 12:41;58.27252815
03.06.2019 12:42;48.04194066
03.06.2019 12:42;29.53877762
03.06.2019 12:43;34.91538046
03.06.2019 12:44;59.91933792
03.06.2019 12:44;39.75505259
03.06.2019 12:45;34.27921758
03.06.2019 12:46;56.68720165
03.06.2019 12:46;57.57990062
03.06.2019 12:47;38.35551251
03.06.2019 12:47;40.95483166
03.06.2019 12:48;58.56761866
03.06.2019 12:49;85.33399774
03.06.2019 12:49;66.98357274
03.06.2019 12:50;35.09008318
03.06.2019 12:51;42.45661682
03.06.2019 12:51;41.85442896
03.06.2019 12:52;46.71911754
03.06.2019 12:53;19.1699504
03.06.2019 12:53;13.49429977
03.06.2019 12:54;3.26111136
03.06.2019 12:55;3.463511895
03.06.2019 12:55;4.416394078
03.06.2019 12:56;0.867691806
03.06.2019 12:57;2.1127461
03.06.2019 12:58;0.727108049
03.06.2019 12:58;4.070354955
03.06.2019 12:59;3.106881832
03.06.2019 13:00;3.060632949
03.06.2019 13:01;3.584644864
03.06.2019 13:01;5.711871058
03.06.2019 13:02;5.712834904
03.06.2019 13:03;6.6089204
03.06.2019 13:04;3.614708759
03.06.2019 13:04;3.416513005
03.06.2019 13:05;2.516474395
03.06.2019 13:06;5.160401289
03.06.2019 13:07;3.140344101
03.06.2019 13:07;1.612186988
03.06.2019 13:08;6.209825201
03.06.2019 13:09;5.493198523
03.06.2019 13:10;4.088158993
03.06.2019 13:10;5.602867591
03.06.2019 13:11;6.681600736
03.06.2019 13:12;7.473599533
03.06.2019 13:13;8.685783389
03.06.2019 13:13;4.067862217
03.06.2019 13:14;5.454234356
03.06.2019 13:15;3.796902959
03.06.2019 13:16;5.53166759
03.06.2019 13:17;5.07600853
03.06.2019 13:17;6.004723927
03.06.2019 13:18;5.817702382
03.06.2019 13:19;6.745282664
03.06.2019 13:20;4.675165524
03.06.2019 13:20;5.484904011
03.06.2019 13:21;6.471230669
03.06.2019 13:22;5.857036268
03.06.2019 13:23;6.270024791
03.06.2019 13:23;3.851516268
03.06.2019 13:24;3.179641764
03.06.2019 13:25;5.998855006
03.06.2019 13:26;4.868313676
03.06.2019 13:27;5.025035552
03.06.2019 13:27;3.809455385
03.06.2019 13:28;3.989344566
03.06.2019 13:29;4.157948853
03.06.2019 13:30;3.942185635
03.06.2019 13:30;3.141266228
03.06.2019 13:31;4.752187294
03.06.2019 13:32;3.825201716
03.06.2019 13:33;4.320738386
03.06.2019 13:34;3.646850535
03.06.2019 13:34;2.601585975
03.06.2019 13:35;3.888952499
03.06.2019 13:36;2.096751168
03.06.2019 13:37;3.36416283
03.06.2019 13:37;1.895203675
03.06.2019 13:38;2.793003874
03.06.2019 13:39;3.249200169
03.06.2019 13:40;3.244239894
03.06.2019 13:41;2.695195771
03.06.2019 13:41;3.000830993
03.06.2019 13:42;2.308374568
03.06.2019 13:43;2.169377553
03.06.2019 13:44;2.860988899
03.06.2019 13:45;2.783843726
03.06.2019 13:45;2.689081086
03.06.2019 13:46;1.765838169
03.06.2019 13:47;1.89407764
03.06.2019 13:48;3.398747157
03.06.2019 13:48;3.024624144
03.06.2019 13:49;2.481412821
03.06.2019 13:50;2.663677514
03.06.2019 13:51;2.801541687
03.06.2019 13:52;2.000346462
03.06.2019 13:52;3.568077676
03.06.2019 13:53;3.054027756
03.06.2019 13:54;3.240242262
03.06.2019 13:55;3.075485713
03.06.2019 13:55;2.751096879
03.06.2019 13:56;3.044103055
03.06.2019 13:57;3.480710247
03.06.2019 13:58;3.341660138
03.06.2019 13:59;2.959856505
03.06.2019 13:59;2.615601624
03.06.2019 14:00;2.45640546
03.06.2019 14:01;2.254594902
03.06.2019 14:02;2.469512779
03.06.2019 14:02;0.966378951
03.06.2019 14:03;3.296944246
03.06.2019 14:04;2.746024316
03.06.2019 14:05;1.955949315
03.06.2019 14:06;2.628304453
03.06.2019 14:06;2.661416856
03.06.2019 14:07;3.81614778
03.06.2019 14:08;2.849323968
03.06.2019 14:09;4.320988414
03.06.2019 14:09;3.188835173
03.06.2019 14:10;3.271239745
03.06.2019 14:11;3.019859194
03.06.2019 14:12;3.350705303
03.06.2019 14:12;3.938860516
03.06.2019 14:13;3.530011244
03.06.2019 14:14;3.753679025
03.06.2019 14:15;4.570849236
03.06.2019 14:15;4.773140929
03.06.2019 14:16;2.819341497
03.06.2019 14:17;4.271368246
03.06.2019 14:18;3.897045848
03.06.2019 14:18;3.553091504
03.06.2019 14:19;5.331011247
03.06.2019 14:20;3.097819554
03.06.2019 14:21;1.309513807
03.06.2019 14:21;0.43525901
03.06.2019 14:22;-0.344344976
03.06.2019 14:23;-0.382895415
03.06.2019 14:24;-0.809666835
03.06.2019 14:24;-0.122013263
03.06.2019 14:25;-0.586009183
03.06.2019 14:26;-3.39331761
03.06.2019 14:27;-1.867788837
03.06.2019 14:27;-2.130310752
03.06.2019 14:28;-1.57930411
03.06.2019 14:29;-3.352548963
03.06.2019 14:30;-2.422360274
03.06.2019 14:30;-2.547402815
03.06.2019 14:31;-3.5997566
03.06.2019 14:32;-2.573272484
03.06.2019 14:33;-5.203524601
03.06.2019 14:33;-5.671493421
03.06.2019 14:34;-5.402433414
03.06.2019 14:35;-4.177183597
03.06.2019 14:36;-4.680600955
03.06.2019 14:36;-7.050326634
03.06.2019 14:37;-4.383831893
03.06.2019 14:38;-3.464312294
03.06.2019 14:39;-5.07133797
03.06.2019 14:39;-4.156690331
03.06.2019 14:40;-2.228409851
03.06.2019 14:41;-0.971998482
03.06.2019 14:42;-1.266325178
03.06.2019 14:42;-4.16803205
03.06.2019 14:43;-6.184844997
03.06.2019 14:44;-5.529800381
03.06.2019 14:45;-9.553625412
03.06.2019 14:45;-4.650840503
03.06.2019 14:46;-10.19714067
03.06.2019 14:47;-7.414987618
03.06.2019 14:48;-7.176368886
03.06.2019 14:48;-7.994741958
03.06.2019 14:49;-8.831379211
03.06.2019 14:50;-9.50266037
03.06.2019 14:50;-11.41232241
03.06.2019 14:51;-13.27193031
03.06.2019 14:52;-11.50187526
03.06.2019 14:53;-12.98282515
03.06.2019 14:53;-14.60240703
03.06.2019 14:54;-14.72690423
03.06.2019 14:55;-11.98234858
03.06.2019 14:56;-12.84049746
03.06.2019 14:56;-12.82437681
03.06.2019 14:57;-10.72343607
03.06.2019 14:58;-12.34030891
03.06.2019 14:59;-10.69821019
03.06.2019 14:59;-11.55880432
03.06.2019 15:00;-10.63250709
03.06.2019 15:01;-7.830779702
03.06.2019 15:02;-8.840247876
03.06.2019 15:02;-8.092380403
03.06.2019 15:03;-7.517201645
03.06.2019 15:04;-9.649197637
03.06.2019 15:04;-9.202142944
03.06.2019 15:05;-7.745387259
03.06.2019 15:06;-7.072970896
03.06.2019 15:07;-9.387171878
03.06.2019 15:07;-10.38140762
03.06.2019 15:08;-6.199681012
03.06.2019 15:09;-8.203902445
03.06.2019 15:09;-9.296991776
03.06.2019 15:10;-9.381399949
03.06.2019 15:11;-10.48378565
03.06.2019 15:12;-9.324307101
03.06.2019 15:12;-9.277346253
03.06.2019 15:13;-8.597301262
03.06.2019 15:14;-6.407454871
03.06.2019 15:14;-4.767152146
03.06.2019 15:15;-7.617868141
03.06.2019 15:16;-7.47481426
03.06.2019 15:16;-6.618982328
03.06.2019 15:17;-5.786606774
03.06.2019 15:18;-4.906542123
03.06.2019 15:18;-2.696291723
03.06.2019 15:19;-7.332358328
03.06.2019 15:19;-4.503006475
03.06.2019 15:20;-7.180967498
03.06.2019 15:21;-6.71974122
03.06.2019 15:22;-8.531873442
03.06.2019 15:22;-3.748891298
03.06.2019 15:23;-6.225149227
03.06.2019 15:24;-5.85618405
03.06.2019 15:24;-4.489153434
03.06.2019 15:25;-2.38367198
03.06.2019 15:25;-5.827709206
03.06.2019 15:26;-6.13127345
03.06.2019 15:27;-4.179299573
03.06.2019 15:27;-4.480766036
03.06.2019 15:28;-2.87142122
03.06.2019 15:29;-2.186917862
03.06.2019 15:29;-2.329304421
03.06.2019 15:30;-1.374418513
03.06.2019 15:31;-1.135891321
03.06.2019 15:31;-0.174026026
03.06.2019 15:32;1.969405812
03.06.2019 15:33;0.598844178
03.06.2019 15:33;-0.081413348
03.06.2019 15:34;3.839968124
03.06.2019 15:34;0.71341404
03.06.2019 15:35;4.620262063
03.06.2019 15:36;0.802173961
03.06.2019 15:36;2.969918522
03.06.2019 15:37;4.064677439
03.06.2019 15:38;1.206588137
03.06.2019 15:38;2.029385631
03.06.2019 15:39;2.708004847
03.06.2019 15:40;9.056757099
03.06.2019 15:40;10.80863717
03.06.2019 15:41;12.03511344
03.06.2019 15:41;9.409713764
03.06.2019 15:42;10.52163308
03.06.2019 15:43;9.939149704
03.06.2019 15:43;6.262500738
03.06.2019 15:44;7.211332643
03.06.2019 15:45;8.000162693
03.06.2019 15:45;6.858592982
03.06.2019 15:46;7.193377958
03.06.2019 15:46;8.463527706
03.06.2019 15:47;7.125424073
03.06.2019 15:48;6.792726142
03.06.2019 15:48;6.573080654
03.06.2019 15:49;9.507497169
03.06.2019 15:50;9.440646881
03.06.2019 15:50;6.686741245
03.06.2019 15:51;8.688150352
03.06.2019 15:52;6.578573602
03.06.2019 15:52;5.4681898
03.06.2019 15:53;5.410247211
03.06.2019 15:54;4.471652478
03.06.2019 15:54;1.411278501
03.06.2019 15:55;-1.63122046
03.06.2019 15:56;5.330651685
03.06.2019 15:56;8.528288542
03.06.2019 15:57;10.3507534
03.06.2019 15:57;11.1855016
03.06.2019 15:58;8.47219415
03.06.2019 15:59;10.98685391
03.06.2019 15:59;18.56323651
03.06.2019 16:00;9.153194457
03.06.2019 16:01;12.67723931
03.06.2019 16:01;15.94476059
03.06.2019 16:02;15.58047882
03.06.2019 16:03;16.13142085
03.06.2019 16:03;10.8110665
03.06.2019 16:04;13.08856429
03.06.2019 16:05;12.9507564
03.06.2019 16:05;8.384073437
03.06.2019 16:06;13.69820456
03.06.2019 16:06;10.07542157
03.06.2019 16:07;12.89076274
03.06.2019 16:08;10.38457224
03.06.2019 16:08;11.13169666
03.06.2019 16:09;13.85782373
03.06.2019 16:10;13.90049865
03.06.2019 16:10;10.6886847
03.06.2019 16:11;12.53401795
03.06.2019 16:11;11.96178559
03.06.2019 16:12;11.06209785
03.06.2019 16:13;11.46905744
03.06.2019 16:13;11.49263552
03.06.2019 16:14;13.25156281
03.06.2019 16:15;9.916371854
03.06.2019 16:15;17.26914688
03.06.2019 16:16;11.30033321
03.06.2019 16:17;12.17742969
03.06.2019 16:17;15.88524293
03.06.2019 16:18;12.76441859
03.06.2019 16:18;14.39882789
03.06.2019 16:19;15.75343945
03.06.2019 16:20;9.345696134
03.06.2019 16:20;11.53911455
03.06.2019 16:21;20.24291743
03.06.2019 16:22;16.32477426
03.06.2019 16:22;16.1990797
03.06.2019 16:23;11.47935721
03.06.2019 16:24;13.34142876
03.06.2019 16:24;15.84815093
03.06.2019 16:25;12.70249727
03.06.2019 16:25;14.32104476
03.06.2019 16:26;18.98144052
03.06.2019 16:27;11.67040598
03.06.2019 16:27;12.5011274
03.06.2019 16:28;13.82125406
03.06.2019 16:29;12.77287714
03.06.2019 16:29;11.32395286
03.06.2019 16:30;0.747750074
03.06.2019 16:31;9.815788959
03.06.2019 16:31;5.597938624
03.06.2019 16:32;-3.79544485
03.06.2019 16:33;17.35728948
03.06.2019 16:33;10.74459343
03.06.2019 16:34;8.254247378
03.06.2019 16:35;12.59667804
03.06.2019 16:35;20.41978013
03.06.2019 16:36;21.53562216
03.06.2019 16:37;19.93050089
03.06.2019 16:37;20.14421304
03.06.2019 16:38;19.39619685
03.06.2019 16:39;22.73878149
03.06.2019 16:39;18.03166446
03.06.2019 16:40;21.23551673
03.06.2019 16:41;17.65033469
03.06.2019 16:41;17.93010132
03.06.2019 16:42;17.3381133
03.06.2019 16:42;24.0315694
03.06.2019 16:43;16.32410182
03.06.2019 16:44;14.73449396
03.06.2019 16:44;20.47298267
03.06.2019 16:45;20.31286752
03.06.2019 16:46;14.62485841
03.06.2019 16:46;18.94117565
03.06.2019 16:47;15.92874691
03.06.2019 16:48;11.50036619
03.06.2019 16:48;17.11672141
03.06.2019 16:49;16.2354991
03.06.2019 16:50;13.89733464
03.06.2019 16:51;23.5979947
03.06.2019 16:51;17.08621598
03.06.2019 16:52;18.96883552
03.06.2019 16:53;13.97434292
03.06.2019 16:53;14.42774813
03.06.2019 16:54;13.51558467
03.06.2019 16:55;14.44021967
03.06.2019 16:55;14.4032963
03.06.2019 16:56;13.2626002
03.06.2019 16:56;11.97972314
03.06.2019 16:57;15.41992309
03.06.2019 16:58;14.25003569
03.06.2019 16:59;11.58570924
03.06.2019 16:59;10.20066233
03.06.2019 17:00;12.75349426
03.06.2019 17:01;12.8034865
03.06.2019 17:01;10.85029558
03.06.2019 17:02;9.742739514
03.06.2019 17:03;10.39685167
03.06.2019 17:03;10.79572465
03.06.2019 17:04;11.28903923
03.06.2019 17:05;11.85991691
03.06.2019 17:05;10.30104425
03.06.2019 17:06;8.0097574
03.06.2019 17:07;8.250882335
03.06.2019 17:07;9.424492467
03.06.2019 17:08;9.275944374
03.06.2019 17:09;10.59713425
03.06.2019 17:10;10.32514326
03.06.2019 17:10;7.226339877
03.06.2019 17:11;10.95823111
03.06.2019 17:12;7.735120389
03.06.2019 17:12;8.486441587
03.06.2019 17:13;8.711856996
03.06.2019 17:14;8.85375568
03.06.2019 17:14;9.495281321
03.06.2019 17:15;8.534155521
03.06.2019 17:16;9.60793786
03.06.2019 17:17;10.63826902
03.06.2019 17:17;6.974798331
03.06.2019 17:18;11.48031573
03.06.2019 17:19;8.817803175
03.06.2019 17:19;10.85790046
03.06.2019 17:20;9.6762789
03.06.2019 17:21;10.97394957
03.06.2019 17:22;10.38377553
03.06.2019 17:22;5.459496694
03.06.2019 17:23;4.430395253
03.06.2019 17:24;7.472725772
03.06.2019 17:24;5.483573562
03.06.2019 17:25;8.742851781
03.06.2019 17:26;8.764860617
03.06.2019 17:27;5.998207379
03.06.2019 17:27;6.265375438
03.06.2019 17:28;4.792098825
03.06.2019 17:29;6.457860905
03.06.2019 17:30;7.496394671
03.06.2019 17:30;6.169398774
03.06.2019 17:31;10.00300275
03.06.2019 17:32;2.058021077
03.06.2019 17:33;1.531131643
03.06.2019 17:33;2.933377791
03.06.2019 17:34;5.01761603
03.06.2019 17:35;4.432471091
03.06.2019 17:35;3.711265811
03.06.2019 17:36;6.664232699
03.06.2019 17:37;4.274080921
03.06.2019 17:38;5.958235654
03.06.2019 17:38;6.146246663
03.06.2019 17:39;5.163763487
03.06.2019 17:40;3.399249049
03.06.2019 17:41;5.027846199
03.06.2019 17:41;4.265602888
03.06.2019 17:42;2.697701727
03.06.2019 17:43;3.129257178
03.06.2019 17:44;3.356094157
03.06.2019 17:44;2.914869479
03.06.2019 17:45;20.06817101
03.06.2019 17:46;-0.116353081
03.06.2019 17:47;2.010770177
03.06.2019 17:47;-0.252754727
03.06.2019 17:48;-0.815066234
03.06.2019 17:49;-2.22789441
03.06.2019 17:50;-2.495336021
03.06.2019 17:50;-0.44975061
03.06.2019 17:51;-4.650791128
03.06.2019 17:52;-7.900006396
03.06.2019 17:53;-9.781870595
03.06.2019 17:53;-11.12015801
03.06.2019 17:54;-10.15583753
03.06.2019 17:55;-9.393196783
03.06.2019 17:56;-9.087042631
03.06.2019 17:56;-9.010954488
03.06.2019 17:57;-7.568749994
03.06.2019 17:58;-8.097568031
03.06.2019 17:59;-11.57876253
03.06.2019 17:59;-8.313374661
03.06.2019 18:00;-7.164792633
03.06.2019 18:01;-7.558410287
03.06.2019 18:02;-7.776514656
03.06.2019 18:03;-9.424017067
03.06.2019 18:03;-12.24554788
03.06.2019 18:04;-13.29408191
03.06.2019 18:05;-12.82007608
03.06.2019 18:06;-13.10600398
03.06.2019 18:06;-9.452750093
03.06.2019 18:07;-10.02037983
03.06.2019 18:08;-13.49522294
03.06.2019 18:09;-13.24387019
03.06.2019 18:09;-14.61971344
03.06.2019 18:10;-13.33697828
03.06.2019 18:11;-10.11303141
03.06.2019 18:12;-14.71195416
03.06.2019 18:13;-11.96087772
03.06.2019 18:13;-10.35910911
03.06.2019 18:14;-17.28054098
03.06.2019 18:15;-18.11826313
03.06.2019 18:16;-17.66782845
03.06.2019 18:16;-15.85542362
03.06.2019 18:17;-21.90576708
03.06.2019 18:18;-15.82824465
03.06.2019 18:19;-17.92272745
03.06.2019 18:19;-14.08132398
03.06.2019 18:20;-20.37139546
03.06.2019 18:21;-17.42229177
03.06.2019 18:22;-18.2283805
03.06.2019 18:22;-25.46163009
03.06.2019 18:23;-17.91772926
03.06.2019 18:24;-13.98338003
03.06.2019 18:25;-12.26076605
03.06.2019 18:25;-16.13955546
03.06.2019 18:26;-3.615723872
03.06.2019 18:27;-29.11964319
03.06.2019 18:28;-23.67977315
03.06.2019 18:28;-30.49259176
03.06.2019 18:29;-16.93498478
03.06.2019 18:30;-4.998780933
03.06.2019 18:31;1.141829892
03.06.2019 18:31;-0.248437774
03.06.2019 18:32;-3.472993817
03.06.2019 18:33;1.923235557
03.06.2019 18:34;2.32906447
03.06.2019 18:34;2.440079379
03.06.2019 18:35;1.515544103
03.06.2019 18:36;3.084016483
03.06.2019 18:37;1.801064374
03.06.2019 18:38;0.827971501
03.06.2019 18:38;1.687181486
03.06.2019 18:39;-0.171104499
03.06.2019 18:40;0.849516202
03.06.2019 18:41;0.780156064
03.06.2019 18:41;0.669702177
03.06.2019 18:42;1.814783566
03.06.2019 18:43;2.272781475
03.06.2019 18:44;2.090381674
03.06.2019 18:44;0.811261152
03.06.2019 18:45;2.037696847
03.06.2019 18:46;1.723202097
03.06.2019 18:47;1.441073405
03.06.2019 18:48;0.232642217
03.06.2019 18:48;0.441998578
03.06.2019 18:49;1.342230121
03.06.2019 18:50;-0.122832783
03.06.2019 18:51;-1.524450953
03.06.2019 18:52;-0.985838125
03.06.2019 18:52;-1.255942612
03.06.2019 18:53;-1.702804211
03.06.2019 18:54;-0.589509012
03.06.2019 18:55;-0.673199975
03.06.2019 18:56;-0.604160517
03.06.2019 18:56;-1.037434284
03.06.2019 18:57;-1.821147668
03.06.2019 18:58;-1.828382827
03.06.2019 18:59;-2.92431417
03.06.2019 19:00;-0.100974418
03.06.2019 19:00;0.084893028
03.06.2019 19:01;0.497045348
03.06.2019 19:02;1.04179604
03.06.2019 19:03;0.986476864
03.06.2019 19:04;0.951514246
03.06.2019 19:05;0.628111212
03.06.2019 19:05;1.115236226
03.06.2019 19:06;0.55641976
03.06.2019 19:07;1.153794774
03.06.2019 19:08;1.401702357
03.06.2019 19:09;1.736823142
03.06.2019 19:10;1.238105567
03.06.2019 19:10;0.509271305
03.06.2019 19:11;0.3960217
03.06.2019 19:12;0.611075358
03.06.2019 19:13;0.740828673
03.06.2019 19:14;0.45441377
03.06.2019 19:15;0.238140378
03.06.2019 19:16;0.542747318
03.06.2019 19:17;-0.13489891
03.06.2019 19:17;0.385726586
03.06.2019 19:18;0.010716873
03.06.2019 19:19;0.094976111
03.06.2019 19:20;-0.694180539
03.06.2019 19:21;0.088689472
03.06.2019 19:22;-1.073847861
03.06.2019 19:23;0.408068289
03.06.2019 19:24;0.594002445
03.06.2019 19:24;0.333144456
03.06.2019 19:25;0.730882308
03.06.2019 19:26;0.804668875
03.06.2019 19:27;0.602179917
03.06.2019 19:28;1.012696487
03.06.2019 19:29;0.24928221
03.06.2019 19:30;1.136683015
03.06.2019 19:31;0.897731054
03.06.2019 19:32;0.158575389
03.06.2019 19:33;-1.389674115
03.06.2019 19:34;-1.90918866
03.06.2019 19:35;-2.134981186
03.06.2019 19:35;-1.109835252
03.06.2019 19:36;-0.047915721
03.06.2019 19:37;0.466836981
03.06.2019 19:38;1.118666105
03.06.2019 19:39;-0.684004293
03.06.2019 19:40;0.887153827
03.06.2019 19:40;1.232255716
03.06.2019 19:41;0.622209876
03.06.2019 19:42;1.148729224
03.06.2019 19:43;-0.412564958
03.06.2019 19:44;-0.241256536
03.06.2019 19:45;1.334507709
03.06.2019 19:45;0.982512827
03.06.2019 19:46;-0.610755883
03.06.2019 19:47;-0.745719439
03.06.2019 19:48;0.42793777
03.06.2019 19:49;-0.133189704
03.06.2019 19:50;0.08991964
03.06.2019 19:50;-0.592827822
03.06.2019 19:51;-0.443066671
03.06.2019 19:52;-0.908833517
03.06.2019 19:53;0.13345534
03.06.2019 19:54;0.251291849
03.06.2019 19:55;-0.270476599
03.06.2019 19:56;0.285554024
03.06.2019 19:57;0.396468691
03.06.2019 19:58;0.805296087
03.06.2019 19:59;2.45E-04
03.06.2019 20:00;-0.954620387
03.06.2019 20:00;-0.056079236
03.06.2019 20:01;0.538282006
03.06.2019 20:02;0.467165614
03.06.2019 20:03;0.55239558
03.06.2019 20:04;1.194885929
03.06.2019 20:05;0.499714766
03.06.2019 20:06;0.240569978
03.06.2019 20:07;0.653590196
03.06.2019 20:08;-0.035721141
03.06.2019 20:09;0.051868375
03.06.2019 20:10;0.743060947
03.06.2019 20:11;1.083201795
03.06.2019 20:12;1.020814489
03.06.2019 20:13;1.546036289
03.06.2019 20:14;1.396871059
03.06.2019 20:15;-0.005314011
03.06.2019 20:16;1.734856585
03.06.2019 20:17;2.561552692
03.06.2019 20:18;2.691725985
03.06.2019 20:19;1.22136067
03.06.2019 20:20;0.53644682
03.06.2019 20:21;1.006079261
03.06.2019 20:22;1.523576503
03.06.2019 20:23;1.941387167
03.06.2019 20:24;2.588395543
03.06.2019 20:25;0.960511797
03.06.2019 20:26;1.665789781
03.06.2019 20:27;3.016597079
03.06.2019 20:28;2.07513068
03.06.2019 20:29;1.391595331
03.06.2019 20:30;2.716851946
03.06.2019 20:31;2.176622812
03.06.2019 20:32;1.742884952
03.06.2019 20:33;2.313602211
03.06.2019 20:34;2.150089447
03.06.2019 20:35;1.188648606
03.06.2019 20:36;
03.06.2019 20:37;
03.06.2019 20:37;
03.06.2019 20:38;
03.06.2019 20:39;
03.06.2019 20:40;
03.06.2019 20:41;
03.06.2019 20:42;
03.06.2019 20:43;
03.06.2019 20:44;
03.06.2019 20:45;
03.06.2019 20:46;
03.06.2019 20:47;
03.06.2019 20:48;
03.06.2019 20:49;
03.06.2019 20:50;
03.06.2019 20:51;
03.06.2019 20:52;
03.06.2019 20:53;
03.06.2019 20:54;
03.06.2019 20:55;
03.06.2019 20:56;
03.06.2019 20:57;
03.06.2019 20:58;
03.06.2019 20:59;
03.06.2019 21:00;
03.06.2019 21:01;
03.06.2019 21:02;
03.06.2019 21:03;
03.06.2019 21:04;
03.06.2019 21:05;
03.06.2019 21:06;
03.06.2019 21:07;
03.06.2019 21:08;
03.06.2019 21:09;
03.06.2019 21:10;
03.06.2019 21:11;
03.06.2019 21:12;
03.06.2019 21:13;
03.06.2019 21:14;
03.06.2019 21:15;
03.06.2019 21:16;
03.06.2019 21:17;
03.06.2019 21:18;
03.06.2019 21:19;
03.06.2019 21:20;
03.06.2019 21:21;
03.06.2019 21:22;
03.06.2019 21:23;
03.06.2019 21:24;
03.06.2019 21:25;
03.06.2019 21:26;
03.06.2019 21:27;
03.06.2019 21:28;
03.06.2019 21:29;
03.06.2019 21:30;
03.06.2019 21:31;
03.06.2019 21:32;
03.06.2019 21:33;
03.06.2019 21:34;
03.06.2019 21:35;
03.06.2019 21:36;
03.06.2019 21:37;
03.06.2019 21:38;
03.06.2019 21:39;
03.06.2019 21:40;
03.06.2019 21:41;
03.06.2019 21:42;
03.06.2019 21:43;
03.06.2019 21:44;
03.06.2019 21:45;
03.06.2019 21:46;
03.06.2019 21:47;
03.06.2019 21:48;
03.06.2019 21:49;
03.06.2019 21:50;
03.06.2019 21:51;
03.06.2019 21:51;
03.06.2019 21:52;
03.06.2019 21:53;
03.06.2019 21:54;
03.06.2019 21:55;
03.06.2019 21:56;
03.06.2019 21:57;
03.06.2019 21:58;
03.06.2019 21:59;
03.06.2019 22:00;
